wl(nm) 	eps1				eps2
250	-1.09396880092933	4.44984244495349
251	-1.10665043922682	4.47871364592226
252	-1.11933207752432	4.50758484689102
253	-1.13201371582181	4.53645604785979
254	-1.1446953541193	4.56532724882856
255	-1.15737699241679	4.59419844979732
256	-1.17005863071428	4.62306965076609
257	-1.18274026901178	4.65194085173486
258	-1.19542190730927	4.68081205270362
259	-1.20810354560676	4.70968325367239
260	-1.22078518390425	4.73855445464116
261	-1.22837402886228	4.76924113027626
262	-1.23596287382031	4.79992780591137
263	-1.24355171877833	4.83061448154648
264	-1.25114056373636	4.86130115718158
265	-1.25872940869439	4.89198783281669
266	-1.26631825365241	4.92267450845179
267	-1.27390709861044	4.9533611840869
268	-1.28149594356847	4.984047859722
269	-1.2890847885265	5.01473453535711
270	-1.29667363348452	5.04542121099222
271	-1.29858010919725	5.075970467227
272	-1.30048658490998	5.10651972346178
273	-1.30239306062271	5.13706897969656
274	-1.30429953633544	5.16761823593134
275	-1.30620601204817	5.19816749216612
276	-1.3081124877609	5.2287167484009
277	-1.31001896347363	5.25926600463568
278	-1.31192543918636	5.28981526087046
279	-1.31383191489909	5.32036451710524
280	-1.31573839061182	5.35091377334002
281	-1.31197138552688	5.37919870493002
282	-1.30820438044194	5.40748363652002
283	-1.30443737535699	5.43576856811002
284	-1.30067037027205	5.46405349970003
285	-1.29690336518711	5.49233843129003
286	-1.29313636010216	5.52062336288003
287	-1.28936935501722	5.54890829447004
288	-1.28560234993228	5.57719322606004
289	-1.28183534484733	5.60547815765004
290	-1.27806833976239	5.63376308924005
291	-1.26937220576116	5.65764187975354
292	-1.26067607175992	5.68152067026704
293	-1.25197993775869	5.70539946078053
294	-1.24328380375746	5.72927825129403
295	-1.23458766975623	5.75315704180752
296	-1.22589153575499	5.77703583232102
297	-1.21719540175376	5.80091462283451
298	-1.20849926775253	5.82479341334801
299	-1.1998031337513	5.84867220386151
300	-1.19110699975006	5.872550994375
301	-1.17905321526273	5.8901605844539
302	-1.16699943077539	5.90777017453279
303	-1.15494564628806	5.92537976461169
304	-1.14289186180072	5.94298935469059
305	-1.13083807731339	5.96059894476948
306	-1.11878429282605	5.97820853484838
307	-1.10673050833872	5.99581812492728
308	-1.09467672385138	6.01342771500617
309	-1.08262293936405	6.03103730508507
310	-1.07056915487671	6.04864689516397
311	-1.05748866151511	6.05880887244092
312	-1.0444081681535	6.06897084971786
313	-1.0313276747919	6.07913282699481
314	-1.01824718143029	6.08929480427176
315	-1.00516668806869	6.09945678154871
316	-0.992086194707084	6.10961875882566
317	-0.979005701345479	6.11978073610261
318	-0.965925207983874	6.12994271337955
319	-0.952844714622269	6.1401046906565
320	-0.939764221260665	6.15026666793345
321	-0.92842295353358	6.15289133121828
322	-0.917081685806496	6.15551599450311
323	-0.905740418079412	6.15814065778794
324	-0.894399150352327	6.16076532107277
325	-0.883057882625243	6.1633899843576
326	-0.871716614898159	6.16601464764242
327	-0.860375347171074	6.16863931092725
328	-0.84903407944399	6.17126397421208
329	-0.837692811716905	6.17388863749691
330	-0.826351543989821	6.17651330078174
331	-0.819368132094896	6.17281178743269
332	-0.812384720199971	6.16911027408364
333	-0.805401308305046	6.16540876073458
334	-0.798417896410122	6.16170724738553
335	-0.791434484515197	6.15800573403648
336	-0.784451072620272	6.15430422068743
337	-0.777467660725347	6.15060270733837
338	-0.770484248830422	6.14690119398932
339	-0.763500836935497	6.14319968064027
340	-0.756517425040572	6.13949816729122
341	-0.755673923280081	6.13182985693211
342	-0.754830421519591	6.124161546573
343	-0.7539869197591	6.11649323621389
344	-0.753143417998609	6.10882492585478
345	-0.752299916238118	6.10115661549567
346	-0.751456414477627	6.09348830513656
347	-0.750612912717136	6.08581999477745
348	-0.749769410956646	6.07815168441834
349	-0.748925909196155	6.07048337405923
350	-0.748082407435664	6.06281506370012
351	-0.753787288990677	6.05413989445392
352	-0.759492170545689	6.04546472520772
353	-0.765197052100702	6.03678955596152
354	-0.770901933655714	6.02811438671533
355	-0.776606815210727	6.01943921746913
356	-0.782311696765739	6.01076404822293
357	-0.788016578320752	6.00208887897673
358	-0.793721459875764	5.99341370973053
359	-0.799426341430777	5.98473854048433
360	-0.80513122298579	5.97606337123813
361	-0.816258869925709	5.96916039336556
362	-0.827386516865629	5.96225741549298
363	-0.838514163805549	5.95535443762041
364	-0.849641810745468	5.94845145974784
365	-0.860769457685388	5.94154848187526
366	-0.871897104625308	5.93464550400269
367	-0.883024751565228	5.92774252613011
368	-0.894152398505147	5.92083954825754
369	-0.905280045445067	5.91393657038497
370	-0.916407692384987	5.90703359251239
371	-0.930574295275153	5.90374949692791
372	-0.94474089816532	5.90046540134342
373	-0.958907501055486	5.89718130575894
374	-0.973074103945652	5.89389721017445
375	-0.987240706835819	5.89061311458997
376	-1.00140730972599	5.88732901900548
377	-1.01557391261615	5.88404492342099
378	-1.02974051550632	5.88076082783651
379	-1.04390711839648	5.87747673225202
380	-1.05807372128665	5.87419263666754
381	-1.07224053034886	5.87493793663946
382	-1.08640733941106	5.87568323661139
383	-1.10057414847327	5.87642853658332
384	-1.11474095753547	5.87717383655525
385	-1.12890776659768	5.87791913652718
386	-1.14307457565988	5.87866443649911
387	-1.15724138472209	5.87940973647103
388	-1.17140819378429	5.88015503644296
389	-1.1855750028465	5.88090033641489
390	-1.19974181190871	5.88164563638682
391	-1.21096947437438	5.88523419235333
392	-1.22219713684006	5.88882274831983
393	-1.23342479930573	5.89241130428634
394	-1.24465246177141	5.89599986025285
395	-1.25588012423708	5.89958841621936
396	-1.26710778670276	5.90317697218587
397	-1.27833544916843	5.90676552815237
398	-1.28956311163411	5.91035408411888
399	-1.30079077409978	5.91394264008539
400	-1.31201843656546	5.9175311960519
401	-1.31821851269206	5.92137068995468
402	-1.32441858881867	5.92521018385747
403	-1.33061866494528	5.92904967776026
404	-1.33681874107189	5.93288917166305
405	-1.34301881719849	5.93672866556584
406	-1.3492188933251	5.94056815946863
407	-1.35541896945171	5.94440765337142
408	-1.36161904557832	5.9482471472742
409	-1.36781912170492	5.95208664117699
410	-1.37401919783153	5.95592613507978
411	-1.37457263728398	5.95654288739837
412	-1.37512607673643	5.95715963971696
413	-1.37567951618889	5.95777639203555
414	-1.37623295564134	5.95839314435413
415	-1.37678639509379	5.95900989667272
416	-1.37733983454624	5.95962664899131
417	-1.37789327399869	5.9602434013099
418	-1.37844671345115	5.96086015362849
419	-1.3790001529036	5.96147690594708
420	-1.37955359235605	5.96209365826566
421	-1.37563860001287	5.95595017137554
422	-1.3717236076697	5.94980668448542
423	-1.36780861532652	5.9436631975953
424	-1.36389362298334	5.93751971070518
425	-1.35997863064017	5.93137622381507
426	-1.35606363829699	5.92523273692495
427	-1.35214864595381	5.91908925003483
428	-1.34823365361063	5.91294576314471
429	-1.34431866126746	5.90680227625459
430	-1.34040366892428	5.90065878936447
431	-1.33483802325233	5.88512280698216
432	-1.32927237758039	5.86958682459985
433	-1.32370673190844	5.85405084221755
434	-1.3181410862365	5.83851485983524
435	-1.31257544056455	5.82297887745294
436	-1.3070097948926	5.80744289507063
437	-1.30144414922066	5.79190691268833
438	-1.29587850354871	5.77637093030602
439	-1.29031285787677	5.76083494792371
440	-1.28474721220482	5.74529896554141
441	-1.28114270485109	5.71947127812315
442	-1.27753819749736	5.69364359070489
443	-1.27393369014363	5.66781590328663
444	-1.2703291827899	5.64198821586838
445	-1.26672467543617	5.61616052845012
446	-1.26312016808244	5.59033284103186
447	-1.25951566072871	5.5645051536136
448	-1.25591115337498	5.53867746619534
449	-1.25230664602125	5.51284977877709
450	-1.24870213866751	5.48702209135883
451	-1.24998843966208	5.45071058725925
452	-1.25127474065664	5.41439908315968
453	-1.2525610416512	5.3780875790601
454	-1.25384734264576	5.34177607496052
455	-1.25513364364032	5.30546457086095
456	-1.25641994463488	5.26915306676137
457	-1.25770624562944	5.2328415626618
458	-1.258992546624	5.19653005856222
459	-1.26027884761856	5.16021855446264
460	-1.26156514861312	5.12390705036307
461	-1.27271205592576	5.07829477383198
462	-1.2838589632384	5.0326824973009
463	-1.29500587055104	4.98707022076981
464	-1.30615277786367	4.94145794423873
465	-1.31729968517631	4.89584566770764
466	-1.32844659248895	4.85023339117656
467	-1.33959349980159	4.80462111464547
468	-1.35074040711422	4.75900883811438
469	-1.36188731442686	4.7133965615833
470	-1.3730342217395	4.66778428505221
471	-1.39673257591527	4.61722902814705
472	-1.42043093009104	4.56667377124188
473	-1.44412928426681	4.51611851433672
474	-1.46782763844257	4.46556325743155
475	-1.49152599261834	4.41500800052639
476	-1.51522434679411	4.36445274362122
477	-1.53892270096988	4.31389748671606
478	-1.56262105514565	4.26334222981089
479	-1.58631940932142	4.21278697290573
480	-1.61001776349719	4.16223171600056
481	-1.6465673718581	4.11104100771984
482	-1.68311698021901	4.05985029943911
483	-1.71966658857991	4.00865959115838
484	-1.75621619694082	3.95746888287765
485	-1.79276580530173	3.90627817459693
486	-1.82931541366264	3.8550874663162
487	-1.86586502202355	3.80389675803547
488	-1.90241463038445	3.75270604975475
489	-1.93896423874536	3.70151534147402
490	-1.97551384710627	3.65032463319329
491	-2.0236486196276	3.60205262884249
492	-2.07178339214894	3.55378062449169
493	-2.11991816467027	3.5055086201409
494	-2.1680529371916	3.4572366157901
495	-2.21618770971293	3.4089646114393
496	-2.26432248223427	3.3606926070885
497	-2.3124572547556	3.3124206027377
498	-2.36059202727693	3.2641485983869
499	-2.40872679979826	3.2158765940361
500	-2.4568615723196	3.16760458968531
501	-2.51440603012683	3.12473397180163
502	-2.57195048793407	3.08186335391796
503	-2.62949494574131	3.03899273603429
504	-2.68703940354855	2.99612211815062
505	-2.74458386135578	2.95325150026695
506	-2.80212831916302	2.91038088238328
507	-2.85967277697026	2.86751026449961
508	-2.9172172347775	2.82463964661594
509	-2.97476169258474	2.78176902873227
510	-3.03230615039197	2.73889841084859
511	-3.09672607839504	2.70281275815826
512	-3.16114600639811	2.66672710546793
513	-3.22556593440117	2.6306414527776
514	-3.28998586240424	2.59455580008727
515	-3.35440579040731	2.55847014739693
516	-3.41882571841037	2.5223844947066
517	-3.48324564641344	2.48629884201627
518	-3.54766557441651	2.45021318932594
519	-3.61208550241957	2.41412753663561
520	-3.67650543042264	2.37804188394527
521	-3.74530697446669	2.34915954237835
522	-3.81410851851074	2.32027720081142
523	-3.8829100625548	2.29139485924449
524	-3.95171160659885	2.26251251767756
525	-4.0205131506429	2.23363017611064
526	-4.08931469468695	2.20474783454371
527	-4.158116238731	2.17586549297678
528	-4.22691778277506	2.14698315140985
529	-4.29571932681911	2.11810080984292
530	-4.36452087086316	2.089218468276
531	-4.43551393600446	2.06719240801024
532	-4.50650700114575	2.04516634774448
533	-4.57750006628705	2.02314028747873
534	-4.64849313142834	2.00111422721297
535	-4.71948619656964	1.97908816694721
536	-4.79047926171093	1.95706210668146
537	-4.86147232685223	1.9350360464157
538	-4.93246539199352	1.91300998614994
539	-5.00345845713482	1.89098392588419
540	-5.07445152227612	1.86895786561843
541	-5.14591031424092	1.85289646496046
542	-5.21736910620573	1.83683506430249
543	-5.28882789817054	1.82077366364452
544	-5.36028669013535	1.80471226298655
545	-5.43174548210016	1.78865086232858
546	-5.50320427406497	1.77258946167061
547	-5.57466306602978	1.75652806101264
548	-5.64612185799459	1.74046666035467
549	-5.7175806499594	1.72440525969671
550	-5.7890394419242	1.70834385903874
551	-5.85978081570071	1.69703487608263
552	-5.93052218947721	1.68572589312653
553	-6.00126356325371	1.67441691017043
554	-6.07200493703021	1.66310792721432
555	-6.14274631080672	1.65179894425822
556	-6.21348768458322	1.64048996130212
557	-6.28422905835972	1.62918097834602
558	-6.35497043213622	1.61787199538991
559	-6.42571180591272	1.60656301243381
560	-6.49645317968923	1.59525402947771
561	-6.56584133613874	1.58737777658427
562	-6.63522949258826	1.57950152369084
563	-6.70461764903778	1.5716252707974
564	-6.7740058054873	1.56374901790397
565	-6.84339396193682	1.55587276501054
566	-6.91278211838633	1.5479965121171
567	-6.98217027483585	1.54012025922367
568	-7.05155843128537	1.53224400633023
569	-7.12094658773489	1.5243677534368
570	-7.1903347441844	1.51649150054337
571	-7.25822032563755	1.51080471408518
572	-7.3261059070907	1.505117927627
573	-7.39399148854384	1.49943114116882
574	-7.46187706999699	1.49374435471064
575	-7.52976265145013	1.48805756825246
576	-7.59764823290328	1.48237078179427
577	-7.66553381435642	1.47668399533609
578	-7.73341939580957	1.47099720887791
579	-7.80130497726271	1.46531042241973
580	-7.86919055871586	1.45962363596154
581	-7.93579988259247	1.45509524666396
582	-8.00240920646909	1.45056685736638
583	-8.06901853034571	1.4460384680688
584	-8.13562785422233	1.44151007877122
585	-8.20223717809895	1.43698168947364
586	-8.26884650197557	1.43245330017606
587	-8.33545582585218	1.42792491087848
588	-8.4020651497288	1.4233965215809
589	-8.46867447360542	1.41886813228332
590	-8.53528379748204	1.41433974298574
591	-8.60108191436385	1.41022705482887
592	-8.66688003124567	1.406114366672
593	-8.73267814812749	1.40200167851513
594	-8.7984762650093	1.39788899035826
595	-8.86427438189112	1.3937763022014
596	-8.93007249877294	1.38966361404453
597	-8.99587061565476	1.38555092588766
598	-9.06166873253657	1.38143823773079
599	-9.12746684941839	1.37732554957392
600	-9.19326496630021	1.37321286141705
601	-9.25881849729786	1.36907834907135
602	-9.32437202829552	1.36494383672565
603	-9.38992555929318	1.36080932437996
604	-9.45547909029084	1.35667481203426
605	-9.5210326212885	1.35254029968856
606	-9.58658615228616	1.34840578734287
607	-9.65213968328382	1.34427127499717
608	-9.71769321428148	1.34013676265147
609	-9.78324674527913	1.33600225030577
610	-9.84880027627679	1.33186773796008
611	-9.91466130534044	1.32754759223587
612	-9.98052233440409	1.32322744651165
613	-10.0463833634677	1.31890730078744
614	-10.1122443925314	1.31458715506323
615	-10.178105421595	1.31026700933902
616	-10.2439664506587	1.30594686361481
617	-10.3098274797223	1.3016267178906
618	-10.375688508786	1.29730657216639
619	-10.4415495378496	1.29298642644218
620	-10.5074105669133	1.28866628071797
621	-10.5740339131294	1.28420825494541
622	-10.6406572593456	1.27975022917285
623	-10.7072806055618	1.27529220340029
624	-10.773903951778	1.27083417762773
625	-10.8405272979942	1.26637615185517
626	-10.9071506442104	1.26191812608261
627	-10.9737739904266	1.25746010031005
628	-11.0403973366428	1.25300207453749
629	-11.107020682859	1.24854404876493
630	-11.1736440290751	1.24408602299237
631	-11.2413400156862	1.23967518166892
632	-11.3090360022972	1.23526434034547
633	-11.3767319889082	1.23085349902201
634	-11.4444279755193	1.22644265769856
635	-11.5121239621303	1.2220318163751
636	-11.5798199487413	1.21762097505165
637	-11.6475159353524	1.21321013372819
638	-11.7152119219634	1.20879929240474
639	-11.7829079085744	1.20438845108128
640	-11.8506038951855	1.19997760975783
641	-11.9195187026977	1.19586533571425
642	-11.9884335102099	1.19175306167068
643	-12.0573483177222	1.1876407876271
644	-12.1262631252344	1.18352851358353
645	-12.1951779327466	1.17941623953995
646	-12.2640927402588	1.17530396549637
647	-12.3330075477711	1.1711916914528
648	-12.4019223552833	1.16707941740922
649	-12.4708371627955	1.16296714336565
650	-12.5397519703077	1.15885486932207
651	-12.6098493701365	1.15530106788233
652	-12.6799467699653	1.15174726644258
653	-12.7500441697941	1.14819346500284
654	-12.8201415696229	1.1446396635631
655	-12.8902389694517	1.14108586212335
656	-12.9603363692805	1.13753206068361
657	-13.0304337691092	1.13397825924387
658	-13.100531168938	1.13042445780412
659	-13.1706285687668	1.12687065636438
660	-13.2407259685956	1.12331685492464
661	-13.311689196594	1.12034541225662
662	-13.3826524245924	1.1173739695886
663	-13.4536156525909	1.11440252692058
664	-13.5245788805893	1.11143108425256
665	-13.5955421085877	1.10845964158455
666	-13.6665053365861	1.10548819891653
667	-13.7374685645845	1.10251675624851
668	-13.8084317925829	1.09954531358049
669	-13.8793950205813	1.09657387091247
670	-13.9503582485798	1.09360242824446
671	-14.0223569191311	1.09093446931571
672	-14.0943555896824	1.08826651038697
673	-14.1663542602337	1.08559855145823
674	-14.2383529307851	1.08293059252949
675	-14.3103516013364	1.08026263360074
676	-14.3823502718877	1.077594674672
677	-14.4543489424391	1.07492671574326
678	-14.5263476129904	1.07225875681452
679	-14.5983462835417	1.06959079788577
680	-14.6703449540931	1.06692283895703
681	-14.743518380202	1.06473777281095
682	-14.816691806311	1.06255270666488
683	-14.88986523242	1.0603676405188
684	-14.963038658529	1.05818257437272
685	-15.036212084638	1.05599750822664
686	-15.109385510747	1.05381244208057
687	-15.182558936856	1.05162737593449
688	-15.2557323629649	1.04944230978841
689	-15.3289057890739	1.04725724364233
690	-15.4020792151829	1.04507217749626
691	-15.4763842360969	1.04349938009568
692	-15.5506892570109	1.04192658269509
693	-15.6249942779249	1.04035378529451
694	-15.699299298839	1.03878098789393
695	-15.773604319753	1.03720819049335
696	-15.847909340667	1.03563539309277
697	-15.922214361581	1.03406259569219
698	-15.996519382495	1.03248979829161
699	-16.070824403409	1.03091700089103
700	-16.145129424323	1.02934420349044
701	-16.2204784853147	1.02844972726762
702	-16.2958275463065	1.02755525104479
703	-16.3711766072982	1.02666077482197
704	-16.4465256682899	1.02576629859914
705	-16.5218747292817	1.02487182237632
706	-16.5972237902734	1.02397734615349
707	-16.6725728512651	1.02308286993067
708	-16.7479219122569	1.02218839370784
709	-16.8232709732486	1.02129391748501
710	-16.8986200342403	1.02039944126219
711	-16.9749179561672	1.02019994100194
712	-17.0512158780941	1.0200004407417
713	-17.127513800021	1.01980094048145
714	-17.2038117219479	1.0196014402212
715	-17.2801096438748	1.01940193996096
716	-17.3564075658017	1.01920243970071
717	-17.4327054877286	1.01900293944046
718	-17.5090034096555	1.01880343918022
719	-17.5853013315824	1.01860393891997
720	-17.6615992535093	1.01840443865972
721	-17.7387601671613	1.01888110480822
722	-17.8159210808132	1.01935777095671
723	-17.8930819944651	1.01983443710521
724	-17.9702429081171	1.0203111032537
725	-18.047403821769	1.0207877694022
726	-18.124564735421	1.02126443555069
727	-18.2017256490729	1.02174110169919
728	-18.2788865627248	1.02221776784768
729	-18.3560474763768	1.02269443399618
730	-18.4332083900287	1.02317110014467
731	-18.511163177576	1.02428207670628
732	-18.5891179651232	1.02539305326788
733	-18.6670727526705	1.02650402982948
734	-18.7450275402177	1.02761500639108
735	-18.822982327765	1.02872598295269
736	-18.9009371153122	1.02983695951429
737	-18.9788919028595	1.03094793607589
738	-19.0568466904067	1.03205891263749
739	-19.134801477954	1.0331698891991
740	-19.2127562655012	1.0342808657607
741	-19.2914547381183	1.03597141646726
742	-19.3701532107354	1.03766196717382
743	-19.4488516833525	1.03935251788038
744	-19.5275501559695	1.04104306858694
745	-19.6062486285866	1.04273361929351
746	-19.6849471012037	1.04442417000007
747	-19.7636455738208	1.04611472070663
748	-19.8423440464378	1.04780527141319
749	-19.9210425190549	1.04949582211975
750	-19.999740991672	1.05118637282631
