TITLE	G4_np
DATA TYPE	ULTRAVIOLET SPECTRUM
ORIGIN	JASCO
OWNER	
DATE	25/05/09
TIME	12:30:52
SPECTROMETER/DATA SYSTEM	
RESOLUTION	
DELTAX	-1
XUNITS	NANOMETERS
YUNITS	ABSORBANCE
FIRSTX	  800.0000
LASTX	  350.0000
NPOINTS	     451
FIRSTY	     0.0037
MAXY	     0.84766
MINY	     0.0037
XYDATA
800	0.0037
799	0.00381
798	0.00383
797	0.00391
796	0.00409
795	0.00428
794	0.00438
793	0.00457
792	0.00474
791	0.00499
790	0.00508
789	0.00523
788	0.0054
787	0.00542
786	0.00556
785	0.00572
784	0.00592
783	0.00595
782	0.00608
781	0.00621
780	0.00631
779	0.00638
778	0.00642
777	0.00667
776	0.00682
775	0.00713
774	0.00734
773	0.00757
772	0.00777
771	0.00794
770	0.0081
769	0.00825
768	0.00847
767	0.00865
766	0.00873
765	0.009
764	0.00907
763	0.00923
762	0.00942
761	0.00962
760	0.00973
759	0.00995
758	0.0101
757	0.0104
756	0.01051
755	0.01072
754	0.01095
753	0.01112
752	0.01126
751	0.01147
750	0.01172
749	0.01196
748	0.01217
747	0.01245
746	0.01271
745	0.01291
744	0.01316
743	0.0134
742	0.01357
741	0.01377
740	0.01412
739	0.01436
738	0.01458
737	0.01487
736	0.01506
735	0.01524
734	0.01554
733	0.0159
732	0.0162
731	0.01645
730	0.0168
729	0.01711
728	0.01751
727	0.01771
726	0.01796
725	0.01826
724	0.01855
723	0.01885
722	0.01923
721	0.01959
720	0.01989
719	0.02018
718	0.02046
717	0.02076
716	0.02106
715	0.02138
714	0.02172
713	0.02212
712	0.02244
711	0.02276
710	0.0231
709	0.02348
708	0.02385
707	0.02419
706	0.02453
705	0.02501
704	0.0254
703	0.02578
702	0.02615
701	0.02658
700	0.02699
699	0.0274
698	0.02785
697	0.02832
696	0.02876
695	0.02917
694	0.02967
693	0.03024
692	0.03081
691	0.03139
690	0.03207
689	0.03281
688	0.0336
687	0.03435
686	0.03521
685	0.03606
684	0.03692
683	0.03775
682	0.03871
681	0.03958
680	0.04045
679	0.04125
678	0.04213
677	0.04295
676	0.04375
675	0.04452
674	0.04532
673	0.04619
672	0.04704
671	0.04788
670	0.04878
669	0.04973
668	0.05069
667	0.05165
666	0.05264
665	0.0537
664	0.0547
663	0.05577
662	0.05686
661	0.05801
660	0.05917
659	0.06035
658	0.06157
657	0.06277
656	0.06408
655	0.06538
654	0.06672
653	0.06808
652	0.06949
651	0.07096
650	0.07244
649	0.07394
648	0.07545
647	0.07704
646	0.07863
645	0.08023
644	0.0819
643	0.0836
642	0.08539
641	0.08724
640	0.08912
639	0.09108
638	0.09306
637	0.09512
636	0.09716
635	0.09929
634	0.10146
633	0.10369
632	0.10602
631	0.10838
630	0.11079
629	0.11323
628	0.11575
627	0.11836
626	0.12097
625	0.12378
624	0.12657
623	0.12954
622	0.13256
621	0.13566
620	0.13879
619	0.14204
618	0.14531
617	0.14869
616	0.15214
615	0.15578
614	0.1595
613	0.16331
612	0.16725
611	0.1713
610	0.17553
609	0.1798
608	0.18414
607	0.18867
606	0.19325
605	0.19805
604	0.20289
603	0.20795
602	0.21317
601	0.21852
600	0.22435
599	0.23004
598	0.23592
597	0.24193
596	0.24812
595	0.25442
594	0.26089
593	0.26749
592	0.27431
591	0.28127
590	0.28849
589	0.29584
588	0.30336
587	0.31104
586	0.31893
585	0.32701
584	0.33525
583	0.3436
582	0.35227
581	0.36113
580	0.37019
579	0.37933
578	0.38874
577	0.3983
576	0.40807
575	0.41798
574	0.42804
573	0.4383
572	0.44875
571	0.45937
570	0.47007
569	0.48096
568	0.492
567	0.50313
566	0.51436
565	0.52571
564	0.53715
563	0.54863
562	0.56019
561	0.57179
560	0.58343
559	0.59511
558	0.60676
557	0.61846
556	0.63009
555	0.64163
554	0.65314
553	0.66438
552	0.67556
551	0.68654
550	0.69726
549	0.70778
548	0.71811
547	0.72816
546	0.73798
545	0.74753
544	0.75677
543	0.76556
542	0.77408
541	0.78212
540	0.78989
539	0.79719
538	0.80401
537	0.81045
536	0.8164
535	0.82197
534	0.82687
533	0.83136
532	0.83537
531	0.83887
530	0.84172
529	0.84407
528	0.84582
527	0.84702
526	0.84766
525	0.84758
524	0.84697
523	0.84581
522	0.84394
521	0.84157
520	0.83865
519	0.83501
518	0.83079
517	0.82589
516	0.82057
515	0.81468
514	0.80817
513	0.80122
512	0.79379
511	0.78598
510	0.77768
509	0.76903
508	0.76005
507	0.75086
506	0.74135
505	0.73165
504	0.72188
503	0.71205
502	0.70216
501	0.69231
500	0.6826
499	0.67291
498	0.6634
497	0.65405
496	0.6449
495	0.63596
494	0.6272
493	0.61879
492	0.61065
491	0.6028
490	0.59534
489	0.58812
488	0.58115
487	0.57455
486	0.56834
485	0.56242
484	0.55673
483	0.55135
482	0.54626
481	0.54146
480	0.53687
479	0.53254
478	0.5285
477	0.52465
476	0.52104
475	0.51763
474	0.51437
473	0.51134
472	0.50848
471	0.50574
470	0.50328
469	0.50098
468	0.4988
467	0.49673
466	0.49487
465	0.49306
464	0.49132
463	0.48975
462	0.48831
461	0.48698
460	0.48567
459	0.48451
458	0.48351
457	0.48255
456	0.48162
455	0.4808
454	0.48011
453	0.47955
452	0.47895
451	0.47842
450	0.47792
449	0.47764
448	0.47727
447	0.47704
446	0.47682
445	0.47669
444	0.47664
443	0.4766
442	0.47658
441	0.47663
440	0.47667
439	0.47673
438	0.47691
437	0.47704
436	0.47721
435	0.47744
434	0.47771
433	0.47815
432	0.4784
431	0.47879
430	0.47917
429	0.4796
428	0.48003
427	0.48033
426	0.48078
425	0.48133
424	0.48188
423	0.48241
422	0.4829
421	0.48359
420	0.48389
419	0.48452
418	0.48513
417	0.4859
416	0.48665
415	0.48749
414	0.48844
413	0.48928
412	0.49023
411	0.4911
410	0.49192
409	0.49281
408	0.4937
407	0.49467
406	0.49571
405	0.49681
404	0.49793
403	0.49911
402	0.50015
401	0.50134
400	0.50253
399	0.50368
398	0.50485
397	0.506
396	0.50731
395	0.50863
394	0.50997
393	0.51126
392	0.51265
391	0.51394
390	0.51534
389	0.51667
388	0.51796
387	0.5193
386	0.52075
385	0.52214
384	0.52341
383	0.52471
382	0.52602
381	0.52728
380	0.5286
379	0.5298
378	0.531
377	0.53227
376	0.53369
375	0.53495
374	0.53623
373	0.53771
372	0.53916
371	0.54035
370	0.5414
369	0.54252
368	0.54402
367	0.54506
366	0.54597
365	0.547
364	0.54796
363	0.54873
362	0.54965
361	0.55051
360	0.55162
359	0.55254
358	0.5537
357	0.55446
356	0.55483
355	0.55535
354	0.55576
353	0.55614
352	0.55644
351	0.5569
350	0.55727