30.02500 608.0
30.07500 589.0
30.12500 596.0
30.17500 657.0
30.22500 605.0
30.27500 626.0
30.32500 633.0
30.37500 604.0
30.42500 662.0
30.47500 635.0
30.52500 622.0
30.57500 611.0
30.62500 627.0
30.67500 607.0
30.72500 601.0
30.77500 580.0
30.82500 603.0
30.87500 605.0
30.92500 597.0
30.97500 649.0
31.02500 587.0
31.07500 584.0
31.12500 678.0
31.17500 644.0
31.22500 655.0
31.27500 649.0
31.32500 722.0
31.37500 797.0
31.42500 1045.0
31.47500 1159.0
31.52500 1750.0
31.57500 2176.0
31.62500 2673.0
31.67500 3114.0
31.72500 2933.0
31.77500 2917.0
31.82500 2238.0
31.87500 1803.0
31.92500 1155.0
31.97500 872.0
32.02500 746.0
32.07500 660.0
32.12500 590.0
32.17500 612.0
32.22500 606.0
32.27500 614.0
32.32500 585.0
32.37500 612.0
32.42500 541.0
32.47500 497.0
32.52500 569.0
32.57500 573.0
32.62500 571.0
32.67500 534.0
32.72500 535.0
32.77500 543.0
32.82500 569.0
32.87500 588.0
32.92500 565.0
32.97500 558.0
33.02500 523.0
33.07500 528.0
33.12500 529.0
33.17500 546.0
33.22500 535.0
33.27500 517.0
33.32500 529.0
33.37500 519.0
33.42500 502.0
33.47500 523.0
33.52500 528.0
33.57500 530.0
33.62500 508.0
33.67500 515.0
33.72500 532.0
33.77500 508.0
33.82500 554.0
33.87500 517.0
33.92500 529.0
33.97500 546.0
34.02500 532.0
34.07500 510.0
34.12500 496.0
34.17500 511.0
34.22500 515.0
34.27500 529.0
34.32500 514.0
34.37500 513.0
34.42500 543.0
34.47500 535.0
34.52500 514.0
34.57500 532.0
34.62500 555.0
34.67500 512.0
34.72500 544.0
34.77500 554.0
34.82500 547.0
34.87500 538.0
34.92500 537.0
34.97500 509.0
35.02500 515.0
35.07500 524.0
35.12500 532.0
35.17500 535.0
35.22500 512.0
35.27500 513.0
35.32500 533.0
35.37500 514.0
35.42500 584.0
35.47500 531.0
35.52500 579.0
35.57500 623.0
35.62500 608.0
35.67500 604.0
35.72500 615.0
35.77500 569.0
35.82500 646.0
35.87500 651.0
35.92500 597.0
35.97500 638.0
36.02500 659.0
36.07500 655.0
36.12500 673.0
36.17500 683.0
36.22500 697.0
36.27500 686.0
36.32500 778.0
36.37500 779.0
36.42500 808.0
36.47500 791.0
36.52500 776.0
36.57500 797.0
36.62500 879.0
36.67500 925.0
36.72500 841.0
36.77500 967.0
36.82500 928.0
36.87500 942.0
36.92500 928.0
36.97500 941.0
37.02500 1031.0
37.07500 989.0
37.12500 1024.0
37.17500 1049.0
37.22500 1107.0
37.27500 1149.0
37.32500 1201.0
37.37500 1319.0
37.42500 1475.0
37.47500 1477.0
37.52500 1777.0
37.57500 1877.0
37.62500 2224.0
37.67500 2515.0
37.72500 2786.0
37.77500 3350.0
37.82500 3939.0
37.87500 4739.0
37.92500 5565.0
37.97500 6366.0
38.02500 7155.0
38.07500 7959.0
38.12500 8720.0
38.17500 9237.0
38.22500 9368.0
38.27500 9325.0
38.32500 9087.0
38.37500 8409.0
38.42500 7556.0
38.47500 6757.0
38.52500 5973.0
38.57500 5142.0
38.62500 4470.0
38.67500 3762.0
38.72500 3184.0
38.77500 2915.0
38.82500 2442.0
38.87500 2141.0
38.92500 1934.0
38.97500 1700.0
39.02500 1605.0
39.07500 1481.0
39.12500 1296.0
39.17500 1264.0
39.22500 1222.0
39.27500 1058.0
39.32500 1091.0
39.37500 987.0
39.42500 966.0
39.47500 890.0
39.52500 823.0
39.57500 821.0
39.62500 814.0
39.67500 768.0
39.72500 800.0
39.77500 732.0
39.82500 770.0
39.87500 703.0
39.92500 696.0
39.97500 685.0
40.02500 684.0
40.07500 680.0
40.12500 632.0
40.17500 656.0
40.22500 643.0
40.27500 622.0
40.32500 611.0
40.37500 612.0
40.42500 605.0
40.47500 592.0
40.52500 579.0
40.57500 586.0
40.62500 623.0
40.67500 575.0
40.72500 563.0
40.77500 556.0
40.82500 570.0
40.87500 484.0
40.92500 558.0
40.97500 555.0
41.02500 514.0
41.07500 526.0
41.12500 558.0
41.17500 551.0
41.22500 545.0
41.27500 519.0
41.32500 563.0
41.37500 542.0
41.42500 585.0
41.47500 535.0
41.52500 500.0
41.57500 506.0
41.62500 553.0
41.67500 546.0
41.72500 524.0
41.77500 499.0
41.82500 530.0
41.87500 506.0
41.92500 550.0
41.97500 529.0
42.02500 559.0
42.07500 568.0
42.12500 561.0
42.17500 535.0
42.22500 578.0
42.27500 573.0
42.32500 558.0
42.37500 576.0
42.42500 575.0
42.47500 598.0
42.52500 627.0
42.57500 607.0
42.62500 571.0
42.67500 641.0
42.72500 611.0
42.77500 657.0
42.82500 590.0
42.87500 641.0
42.92500 640.0
42.97500 656.0
43.02500 670.0
43.07500 658.0
43.12500 730.0
43.17500 711.0
43.22500 740.0
43.27500 781.0
43.32500 784.0
43.37500 886.0
43.42500 893.0
43.47500 988.0
43.52500 950.0
43.57500 1074.0
43.62500 1132.0
43.67500 1196.0
43.72500 1198.0
43.77500 1296.0
43.82500 1420.0
43.87500 1561.0
43.92500 1602.0
43.97500 1757.0
44.02500 1888.0
44.07500 2024.0
44.12500 2183.0
44.17500 2338.0
44.22500 2501.0
44.27500 2514.0
44.32500 2614.0
44.37500 2564.0
44.42500 2666.0
44.47500 2503.0
44.52500 2517.0
44.57500 2416.0
44.62500 2373.0
44.67500 2186.0
44.72500 2055.0
44.77500 1894.0
44.82500 1724.0
44.87500 1520.0
44.92500 1483.0
44.97500 1390.0
45.02500 1349.0
45.07500 1204.0
45.12500 1154.0
45.17500 1306.0
45.22500 1266.0
45.27500 1530.0
45.32500 1693.0
45.37500 1949.0
45.42500 1965.0
45.47500 1874.0
45.52500 1797.0
45.57500 1538.0
45.62500 1218.0
45.67500 995.0
45.72500 799.0
45.77500 636.0
45.82500 599.0
45.87500 552.0
45.92500 491.0
45.97500 465.0
46.02500 478.0
46.07500 458.0
46.12500 421.0
46.17500 435.0
46.22500 405.0
46.27500 429.0
46.32500 407.0
46.37500 368.0
46.42500 371.0
46.47500 402.0
46.52500 367.0
46.57500 383.0
46.62500 340.0
46.67500 359.0
46.72500 366.0
46.77500 380.0
46.82500 359.0
46.87500 380.0
46.92500 344.0
46.97500 327.0
47.02500 329.0
47.07500 299.0
47.12500 333.0
47.17500 347.0
47.22500 332.0
47.27500 334.0
47.32500 333.0
47.37500 317.0
47.42500 323.0
47.47500 345.0
47.52500 310.0
47.57500 309.0
47.62500 329.0
47.67500 317.0
47.72500 278.0
47.77500 297.0
47.82500 305.0
47.87500 295.0
47.92500 301.0
47.97500 285.0
48.02500 337.0
48.07500 327.0
48.12500 277.0
48.17500 286.0
48.22500 293.0
48.27500 290.0
48.32500 321.0
48.37500 287.0
48.42500 281.0
48.47500 290.0
48.52500 267.0
48.57500 275.0
48.62500 252.0
48.67500 256.0
48.72500 288.0
48.77500 263.0
48.82500 266.0
48.87500 284.0
48.92500 290.0
48.97500 276.0
49.02500 310.0
49.07500 249.0
49.12500 271.0
49.17500 302.0
49.22500 264.0
49.27500 256.0
49.32500 265.0
49.37500 249.0
49.42500 245.0
49.47500 274.0
49.52500 296.0
49.57500 262.0
49.62500 276.0
49.67500 253.0
49.72500 253.0
49.77500 296.0
49.82500 283.0
49.87500 266.0
49.92500 309.0
49.97500 281.0
50.02500 275.0
50.07500 280.0
50.12500 300.0
50.17500 238.0
50.22500 268.0
50.27500 285.0
50.32500 281.0
50.37500 285.0
50.42500 276.0
50.47500 272.0
50.52500 305.0
50.57500 311.0
50.62500 275.0
50.67500 290.0
50.72500 283.0
50.77500 265.0
50.82500 286.0
50.87500 276.0
50.92500 271.0
50.97500 281.0
51.02500 252.0
51.07500 303.0
51.12500 318.0
51.17500 317.0
51.22500 406.0
51.27500 768.0
51.32500 1229.0
51.37500 1799.0
51.42500 2262.0
51.47500 2653.0
51.52500 2867.0
51.57500 2551.0
51.62500 2078.0
51.67500 1500.0
51.72500 1025.0
51.77500 576.0
51.82500 362.0
51.87500 309.0
51.92500 333.0
51.97500 317.0
52.02500 310.0
52.07500 344.0
52.12500 306.0
52.17500 319.0
52.22500 318.0
52.27500 320.0
52.32500 324.0
52.37500 354.0
52.42500 356.0
52.47500 347.0
52.52500 380.0
52.57500 366.0
52.62500 356.0
52.67500 358.0
52.72500 395.0
52.77500 388.0
52.82500 384.0
52.87500 356.0
52.92500 375.0
52.97500 367.0
53.02500 427.0
53.07500 360.0
53.12500 400.0
53.17500 411.0
53.22500 441.0
53.27500 409.0
53.32500 409.0
53.37500 419.0
53.42500 434.0
53.47500 500.0
53.52500 577.0
53.57500 593.0
53.62500 694.0
53.67500 729.0
53.72500 855.0
53.77500 876.0
53.82500 815.0
53.87500 786.0
53.92500 748.0
53.97500 602.0
54.02500 583.0
54.07500 556.0
54.12500 539.0
54.17500 493.0
54.22500 506.0
54.27500 513.0
54.32500 514.0
54.37500 499.0
54.42500 586.0
54.47500 580.0
54.52500 588.0
54.57500 578.0
54.62500 642.0
54.67500 603.0
54.72500 602.0
54.77500 566.0
54.82500 586.0
54.87500 624.0
54.92500 607.0
54.97500 625.0
55.02500 586.0
55.07500 623.0
55.12500 677.0
55.17500 645.0
55.22500 658.0
55.27500 645.0
55.32500 619.0
55.37500 605.0
55.42500 646.0
55.47500 584.0
55.52500 636.0
55.57500 652.0
55.62500 621.0
55.67500 593.0
55.72500 575.0
55.77500 582.0
55.82500 584.0
55.87500 576.0
55.92500 610.0
55.97500 581.0
56.02500 561.0
56.07500 569.0
56.12500 596.0
56.17500 534.0
56.22500 660.0
56.27500 670.0
56.32500 723.0
56.37500 786.0
56.42500 825.0
56.47500 857.0
56.52500 765.0
56.57500 796.0
56.62500 654.0
56.67500 616.0
56.72500 537.0
56.77500 494.0
56.82500 481.0
56.87500 453.0
56.92500 447.0
56.97500 412.0
57.02500 409.0
57.07500 363.0
57.12500 379.0
57.17500 370.0
57.22500 383.0
57.27500 368.0
57.32500 360.0
57.37500 331.0
57.42500 385.0
57.47500 338.0
57.52500 315.0
57.57500 321.0
57.62500 313.0
57.67500 304.0
57.72500 347.0
57.77500 283.0
57.82500 331.0
57.87500 304.0
57.92500 298.0
57.97500 282.0
58.02500 293.0
58.07500 289.0
58.12500 260.0
58.17500 264.0
58.22500 241.0
58.27500 300.0
58.32500 261.0
58.37500 282.0
58.42500 282.0
58.47500 257.0
58.52500 263.0
58.57500 264.0
58.62500 268.0
58.67500 262.0
58.72500 248.0
58.77500 221.0
58.82500 283.0
58.87500 258.0
58.92500 251.0
58.97500 235.0
59.02500 266.0
59.07500 232.0
59.12500 228.0
59.17500 258.0
59.22500 257.0
59.27500 234.0
59.32500 260.0
59.37500 220.0
59.42500 231.0
59.47500 212.0
59.52500 230.0
59.57500 227.0
59.62500 213.0
59.67500 217.0
59.72500 209.0
59.77500 225.0
59.82500 200.0
59.87500 220.0
59.92500 223.0
59.97500 231.0
60.02500 223.0
60.07500 230.0
60.12500 210.0
60.17500 247.0
60.22500 212.0
60.27500 202.0
60.32500 238.0
60.37500 237.0
60.42500 220.0
60.47500 245.0
60.52500 219.0
60.57500 221.0
60.62500 239.0
60.67500 204.0
60.72500 219.0
60.77500 216.0
60.82500 213.0
60.87500 204.0
60.92500 225.0
60.97500 237.0
61.02500 210.0
61.07500 210.0
61.12500 230.0
61.17500 199.0
61.22500 235.0
61.27500 230.0
61.32500 227.0
61.37500 208.0
61.42500 225.0
61.47500 253.0
61.52500 221.0
61.57500 245.0
61.62500 222.0
61.67500 234.0
61.72500 250.0
61.77500 259.0
61.82500 250.0
61.87500 274.0
61.92500 250.0
61.97500 251.0
62.02500 217.0
62.07500 273.0
62.12500 226.0
62.17500 224.0
62.22500 221.0
62.27500 250.0
62.32500 230.0
62.37500 237.0
62.42500 227.0
62.47500 247.0
62.52500 268.0
62.57500 244.0
62.62500 250.0
62.67500 256.0
62.72500 258.0
62.77500 249.0
62.82500 233.0
62.87500 257.0
62.92500 259.0
62.97500 296.0
63.02500 276.0
63.07500 259.0
63.12500 308.0
63.17500 356.0
63.22500 335.0
63.27500 340.0
63.32500 330.0
63.37500 385.0
63.42500 438.0
63.47500 382.0
63.52500 438.0
63.57500 434.0
63.62500 422.0
63.67500 438.0
63.72500 464.0
63.77500 476.0
63.82500 517.0
63.87500 540.0
63.92500 559.0
63.97500 601.0
64.02500 656.0
64.07500 739.0
64.12500 797.0
64.17500 854.0
64.22500 966.0
64.27500 1067.0
64.32500 1253.0
64.37500 1225.0
64.42500 1407.0
64.47500 1625.0
64.52500 1695.0
64.57500 1729.0
64.62500 1878.0
64.67500 1870.0
64.72500 2016.0
64.77500 1962.0
64.82500 1910.0
64.87500 1733.0
64.92500 1660.0
64.97500 1578.0
65.02500 1442.0
65.07500 1255.0
65.12500 1247.0
65.17500 1124.0
65.22500 966.0
65.27500 853.0
65.32500 804.0
65.37500 767.0
65.42500 637.0
65.47500 598.0
65.52500 580.0
65.57500 523.0
65.62500 521.0
65.67500 466.0
65.72500 473.0
65.77500 402.0
65.82500 410.0
65.87500 379.0
65.92500 374.0
65.97500 353.0
66.02500 349.0
66.07500 334.0
66.12500 341.0
66.17500 353.0
66.22500 366.0
66.27500 389.0
66.32500 316.0
66.37500 326.0
66.42500 328.0
66.47500 274.0
66.52500 282.0
66.57500 267.0
66.62500 256.0
66.67500 258.0
66.72500 248.0
66.77500 233.0
66.82500 242.0
66.87500 218.0
66.92500 225.0
66.97500 215.0
67.02500 212.0
67.07500 225.0
67.12500 200.0
67.17500 212.0
67.22500 202.0
67.27500 213.0
67.32500 227.0
67.37500 194.0
67.42500 200.0
67.47500 179.0
67.52500 186.0
67.57500 214.0
67.62500 192.0
67.67500 185.0
67.72500 211.0
67.77500 219.0
67.82500 192.0
67.87500 178.0
67.92500 190.0
67.97500 184.0
68.02500 188.0
68.07500 204.0
68.12500 195.0
68.17500 199.0
68.22500 165.0
68.27500 196.0
68.32500 201.0
68.37500 182.0
68.42500 165.0
68.47500 179.0
68.52500 190.0
68.57500 172.0
68.62500 188.0
68.67500 192.0
68.72500 186.0
68.77500 185.0
68.82500 188.0
68.87500 192.0
68.92500 193.0
68.97500 165.0
69.02500 201.0
69.07500 175.0
69.12500 210.0
69.17500 177.0
69.22500 176.0
69.27500 172.0
69.32500 185.0
69.37500 200.0
69.42500 188.0
69.47500 171.0
69.52500 168.0
69.57500 164.0
69.62500 191.0
69.67500 180.0
69.72500 192.0
69.77500 169.0
69.82500 188.0
69.87500 159.0
69.92500 161.0
69.97500 154.0
70.02500 186.0
70.07500 183.0
70.12500 198.0
70.17500 173.0
70.22500 198.0
70.27500 168.0
70.32500 177.0
70.37500 165.0
70.42500 173.0
70.47500 179.0
70.52500 164.0
70.57500 153.0
70.62500 172.0
70.67500 179.0
70.72500 199.0
70.77500 162.0
70.82500 180.0
70.87500 170.0
70.92500 198.0
70.97500 165.0
71.02500 170.0
71.07500 146.0
71.12500 160.0
71.17500 160.0
71.22500 169.0
71.27500 179.0
71.32500 176.0
71.37500 199.0
71.42500 200.0
71.47500 211.0
71.52500 205.0
71.57500 228.0
71.62500 209.0
71.67500 206.0
71.72500 219.0
71.77500 180.0
71.82500 185.0
71.87500 184.0
71.92500 160.0
71.97500 155.0
72.02500 165.0
72.07500 183.0
72.12500 158.0
72.17500 176.0
72.22500 175.0
72.27500 176.0
72.32500 157.0
72.37500 164.0
72.42500 151.0
72.47500 173.0
72.52500 192.0
72.57500 176.0
72.62500 169.0
72.67500 190.0
72.72500 175.0
72.77500 175.0
72.82500 180.0
72.87500 172.0
72.92500 207.0
72.97500 199.0
73.02500 201.0
73.07500 205.0
73.12500 213.0
73.17500 214.0
73.22500 177.0
73.27500 203.0
73.32500 202.0
73.37500 198.0
73.42500 199.0
73.47500 186.0
73.52500 210.0
73.57500 196.0
73.62500 203.0
73.67500 201.0
73.72500 190.0
73.77500 183.0
73.82500 207.0
73.87500 197.0
73.92500 221.0
73.97500 210.0
74.02500 188.0
74.07500 202.0
74.12500 207.0
74.17500 195.0
74.22500 207.0
74.27500 198.0
74.32500 222.0
74.37500 218.0
74.42500 228.0
74.47500 221.0
74.52500 228.0
74.57500 212.0
74.62500 214.0
74.67500 207.0
74.72500 210.0
74.77500 222.0
74.82500 198.0
74.87500 251.0
74.92500 225.0
74.97500 222.0
75.02500 270.0
75.07500 335.0
75.12500 335.0
75.17500 398.0
75.22500 400.0
75.27500 442.0
75.32500 436.0
75.37500 429.0
75.42500 395.0
75.47500 415.0
75.52500 351.0
75.57500 341.0
75.62500 301.0
75.67500 278.0
75.72500 287.0
75.77500 275.0
75.82500 256.0
75.87500 282.0
75.92500 265.0
75.97500 266.0
76.02500 306.0
76.07500 264.0
76.12500 312.0
76.17500 298.0
76.22500 305.0
76.27500 291.0
76.32500 316.0
76.37500 356.0
76.42500 313.0
76.47500 317.0
76.52500 349.0
76.57500 386.0
76.62500 401.0
76.67500 410.0
76.72500 428.0
76.77500 421.0
76.82500 548.0
76.87500 490.0
76.92500 585.0
76.97500 584.0
77.02500 623.0
77.07500 634.0
77.12500 775.0
77.17500 809.0
77.22500 846.0
77.27500 985.0
77.32500 1070.0
77.37500 1132.0
77.42500 1265.0
77.47500 1311.0
77.52500 1454.0
77.57500 1474.0
77.62500 1518.0
77.67500 1489.0
77.72500 1428.0
77.77500 1442.0
77.82500 1349.0
77.87500 1414.0
77.92500 1307.0
77.97500 1208.0
78.02500 1097.0
78.07500 1040.0
78.12500 976.0
78.17500 858.0
78.22500 833.0
78.27500 783.0
78.32500 712.0
78.37500 647.0
78.42500 585.0
78.47500 577.0
78.52500 521.0
78.57500 528.0
78.62500 507.0
78.67500 447.0
78.72500 465.0
78.77500 432.0
78.82500 409.0
78.87500 389.0
78.92500 397.0
78.97500 409.0
79.02500 347.0
79.07500 325.0
79.12500 320.0
79.17500 359.0
79.22500 287.0
79.27500 304.0
79.32500 295.0
79.37500 287.0
79.42500 283.0
79.47500 277.0
79.52500 329.0
79.57500 275.0
79.62500 292.0
79.67500 295.0
79.72500 279.0
79.77500 282.0
79.82500 262.0
79.87500 242.0
79.92500 277.0
79.97500 267.0
80.02500 298.0
80.07500 266.0
80.12500 268.0
80.17500 291.0
80.22500 243.0
80.27500 281.0
80.32500 269.0
80.37500 255.0
80.42500 267.0
80.47500 278.0
80.52500 298.0
80.57500 304.0
80.62500 290.0
80.67500 281.0
80.72500 289.0
80.77500 294.0
80.82500 285.0
80.87500 297.0
80.92500 317.0
80.97500 286.0
81.02500 309.0
81.07500 336.0
81.12500 328.0
81.17500 342.0
81.22500 361.0
81.27500 372.0
81.32500 392.0
81.37500 401.0
81.42500 416.0
81.47500 511.0
81.52500 510.0
81.57500 492.0
81.62500 555.0
81.67500 537.0
81.72500 584.0
81.77500 597.0
81.82500 583.0
81.87500 607.0
81.92500 538.0
81.97500 560.0
82.02500 530.0
82.07500 511.0
82.12500 530.0
82.17500 485.0
82.22500 474.0
82.27500 422.0
82.32500 407.0
82.37500 396.0
82.42500 374.0
82.47500 339.0
82.52500 358.0
82.57500 338.0
82.62500 326.0
82.67500 332.0
82.72500 294.0
82.77500 285.0
82.82500 282.0
82.87500 254.0
82.92500 284.0
82.97500 255.0
83.02500 269.0
83.07500 252.0
83.12500 236.0
83.17500 279.0
83.22500 233.0
83.27500 247.0
83.32500 245.0
83.37500 234.0
83.42500 238.0
83.47500 245.0
83.52500 260.0
83.57500 228.0
83.62500 266.0
83.67500 227.0
83.72500 266.0
83.77500 267.0
83.82500 302.0
83.87500 317.0
83.92500 304.0
83.97500 298.0
84.02500 290.0
84.07500 305.0
84.12500 315.0
84.17500 300.0
84.22500 281.0
84.27500 258.0
84.32500 272.0
84.37500 233.0
84.42500 227.0
84.47500 225.0
84.52500 226.0
84.57500 219.0
84.62500 239.0
84.67500 220.0
84.72500 215.0
84.77500 249.0
84.82500 239.0
84.87500 229.0
84.92500 215.0
84.97500 219.0
85.02500 211.0
85.07500 230.0
85.12500 225.0
85.17500 220.0
85.22500 222.0
85.27500 251.0
85.32500 209.0
85.37500 232.0
85.42500 227.0
85.47500 239.0
85.52500 210.0
85.57500 238.0
85.62500 213.0
85.67500 219.0
85.72500 223.0
85.77500 192.0
85.82500 215.0
85.87500 205.0
85.92500 228.0
85.97500 209.0
86.02500 209.0
86.07500 215.0
86.12500 224.0
86.17500 228.0
86.22500 233.0
86.27500 196.0
86.32500 202.0
86.37500 209.0
86.42500 220.0
86.47500 230.0
86.52500 219.0
86.57500 235.0
86.62500 221.0
86.67500 212.0
86.72500 216.0
86.77500 267.0
86.82500 210.0
86.87500 264.0
86.92500 208.0
86.97500 209.0
87.02500 210.0
87.07500 217.0
87.12500 223.0
87.17500 216.0
87.22500 225.0
87.27500 227.0
87.32500 225.0
87.37500 221.0
87.42500 207.0
87.47500 196.0
87.52500 187.0
87.57500 198.0
87.62500 194.0
87.67500 197.0
87.72500 234.0
87.77500 238.0
87.82500 244.0
87.87500 263.0
87.92500 259.0
87.97500 240.0
88.02500 286.0
88.07500 265.0
88.12500 234.0
88.17500 243.0
88.22500 227.0
88.27500 230.0
88.32500 214.0
88.37500 195.0
88.42500 228.0
88.47500 211.0
88.52500 245.0
88.57500 212.0
88.62500 179.0
88.67500 226.0
88.72500 166.0
88.77500 183.0
88.82500 173.0
88.87500 203.0
88.92500 214.0
88.97500 209.0
89.02500 223.0
89.07500 218.0
89.12500 209.0
89.17500 233.0
89.22500 225.0
89.27500 189.0
89.32500 191.0
89.37500 220.0
89.42500 207.0
89.47500 206.0
89.52500 188.0
89.57500 216.0
89.62500 210.0
89.67500 203.0
89.72500 205.0
89.77500 194.0
89.82500 179.0
89.87500 233.0
89.92500 212.0
89.97500 208.0
